t    f(t)
begin
0.0	4.242640687119286
5.555555555555556E-6	4.446260351796364
1.1111111111111112E-5	4.649820877466491
1.6666666666666667E-5	4.853314821141653
2.2222222222222223E-5	4.819170021401202
2.777777777777778E-5	4.7510338538801
3.3333333333333335E-5	4.682848067320564
3.888888888888889E-5	4.512822165312655
4.4444444444444447E-5	4.308842330051416
5.0E-5	4.104849689648692
5.555555555555556E-5	4.070453937643208
6.111111111111112E-5	4.137765182142143
6.666666666666667E-5	4.205007817043929
7.222222222222222E-5	4.272179370105852
7.777777777777778E-5	4.339277370193123
8.333333333333334E-5	4.406299347329108
8.888888888888889E-5	4.371578222910447
9.444444444444444E-5	4.167410142901084
1.0E-4	3.963275601351145
1.0555555555555557E-4	3.79304854391072
1.1111111111111112E-4	3.7244291283230573
1.1666666666666667E-4	3.6557973897917067
1.2222222222222224E-4	3.62099690717468
1.277777777777778E-4	3.8229930617228414
1.3333333333333334E-4	4.024828613920142
1.388888888888889E-4	4.226496158416553
1.4444444444444444E-4	4.427988293358737
1.5000000000000001E-4	4.629297620540488
1.5555555555555556E-4	4.830416745553093
1.611111111111111E-4	4.794966680985657
1.666666666666667E-4	4.725726944422876
1.7222222222222224E-4	4.656479163092135
1.7777777777777779E-4	4.48603702065723
1.8333333333333334E-4	4.28195609221745
1.8888888888888888E-4	4.077986397899706
1.9444444444444446E-4	4.042576019325256
2.0E-4	4.1081657293319385
2.0555555555555556E-4	4.17364598639522
2.1111111111111113E-4	4.239014351822324
2.1666666666666668E-4	4.304268389027547
2.2222222222222223E-4	4.369405663581945
2.2777777777777778E-4	4.333641385461532
2.3333333333333333E-4	4.129973017662669
2.388888888888889E-4	3.9264620165585993
2.444444444444445E-4	3.7566573536048993
2.5E-4	3.687557931201991
2.555555555555556E-4	3.6184877123871972
2.611111111111111E-4	3.582934541732686
2.666666666666667E-4	3.7816371214091857
2.7222222222222226E-4	3.980056524626058
2.777777777777778E-4	4.178185441920114
2.8333333333333335E-4	4.376016570316219
2.888888888888889E-4	4.573542613475843
2.9444444444444445E-4	4.770756281845497
3.0000000000000003E-4	4.734270748847768
3.0555555555555555E-4	4.664454399446649
3.111111111111111E-4	4.594671640773584
3.166666666666667E-4	4.4251104255313916
3.222222222222222E-4	4.222481583005932
3.277777777777778E-4	4.02008716730719
3.333333333333334E-4	3.9839316565261003
3.388888888888889E-4	4.047300654743227
3.444444444444445E-4	4.1105201896736965
3.5E-4	4.17358787473458
3.5555555555555557E-4	4.23650132643316
3.6111111111111115E-4	4.299258164415649
3.6666666666666667E-4	4.262722920345045
3.7222222222222225E-4	4.061104304013949
3.7777777777777777E-4	3.8597656849574604
3.8333333333333334E-4	3.691675732506416
3.888888888888889E-4	3.6226221916161196
3.9444444444444444E-4	3.5536391585888043
4.0E-4	3.5176038809930827
4.055555555555556E-4	3.7115006391866814
4.111111111111111E-4	3.904993801955732
4.166666666666667E-4	4.098076211353317
4.2222222222222227E-4	4.290740718862548
4.277777777777778E-4	4.482980185542113
4.3333333333333337E-4	4.674787482171654
4.388888888888889E-4	4.637544157680313
4.4444444444444447E-4	4.567682540016062
4.5000000000000004E-4	4.497895892930157
4.5555555555555556E-4	4.33050606811253
4.6111111111111114E-4	4.130871439343644
4.6666666666666666E-4	3.931592645976471
4.7222222222222224E-4	3.8949671682570752
4.777777777777778E-4	3.9556331783449683
4.8333333333333334E-4	4.016110852308803
4.88888888888889E-4	4.076397873838847
4.944444444444445E-4	4.136491930675176
5.0E-4	4.196390714655094
5.055555555555555E-4	4.15936255990226
5.111111111111112E-4	3.9613281344498623
5.166666666666667E-4	3.7636942059035468
5.222222222222222E-4	3.5985982299888066
5.277777777777778E-4	3.5301161097529654
5.333333333333334E-4	3.4617452650475578
5.388888888888889E-4	3.4255021307318225
5.444444444444445E-4	3.613117396034606
5.5E-4	3.8002117185528017
5.555555555555556E-4	3.986778146332049
5.611111111111112E-4	4.172809739718251
5.666666666666667E-4	4.358299571498961
5.722222222222222E-4	4.543240727044628
5.777777777777778E-4	4.5055230552471865
5.833333333333334E-4	4.436147858413827
5.888888888888889E-4	4.366888441437736
5.944444444444444E-4	4.202943944684276
6.000000000000001E-4	4.007822869739584
6.055555555555556E-4	3.8131763306493216
6.111111111111111E-4	3.776359627992137
6.166666666666667E-4	3.8338609449828875
6.222222222222223E-4	3.891136486363808
6.277777777777778E-4	3.9481840237268635
6.333333333333334E-4	4.005001333642636
6.388888888888889E-4	4.061586197706023
6.444444444444444E-4	4.024346938886837
6.500000000000001E-4	3.831403865867285
6.555555555555556E-4	3.638978741362013
6.611111111111111E-4	3.4781332220479615
6.666666666666668E-4	3.4107437127522044
6.722222222222223E-4	3.34350539978036
6.777777777777778E-4	3.3073302408809577
6.833333333333333E-4	3.4872361478387726
6.88888888888889E-4	3.666507729341111
6.944444444444445E-4	3.845138292334732
7.0E-4	4.023121158843281
7.055555555555556E-4	4.200449666103471
7.111111111111111E-4	4.377117166701038
7.166666666666667E-4	4.339212201854427
7.222222222222223E-4	4.270851412989751
7.277777777777778E-4	4.202646332106639
7.333333333333333E-4	4.0433948800300366
7.38888888888889E-4	3.8542723481071923
7.444444444444445E-4	3.665739440987113
7.5E-4	3.629011710729892
7.555555555555555E-4	3.6829107148809554
7.611111111111112E-4	3.7365482222251343
7.666666666666667E-4	3.7899221092156288
7.722222222222222E-4	3.8430302581751508
7.777777777777778E-4	3.8958705573396104
7.833333333333334E-4	3.858703607699362
7.888888888888889E-4	3.6723203004005573
7.944444444444445E-4	3.4865684513232758
8.0E-4	3.331197520133071
8.055555555555556E-4	3.2654134966340402
8.111111111111112E-4	3.1998194395570754
8.166666666666667E-4	3.163987570876388
8.222222222222222E-4	3.334814926907132
8.277777777777779E-4	3.504899402411235
8.333333333333334E-4	3.6742346141747673
8.388888888888889E-4	3.842814196722546
8.444444444444445E-4	4.010631802448084
8.500000000000001E-4	4.177681101743245
8.555555555555556E-4	4.1398773235175925
8.611111111111111E-4	4.073051209502232
8.666666666666667E-4	4.006419546560974
8.722222222222223E-4	3.8530731388701858
8.777777777777778E-4	3.671388486632431
8.833333333333334E-4	3.490404060745
8.888888888888889E-4	3.4540448230918095
8.944444444444445E-4	3.5039313104364904
9.000000000000001E-4	3.553522569925823
9.055555555555556E-4	3.602816599035724
9.111111111111111E-4	3.6518114019578416
9.166666666666668E-4	3.7005049896408844
9.222222222222223E-4	3.663693212108358
9.277777777777778E-4	3.485288160040149
9.333333333333333E-4	3.307623270122383
9.38888888888889E-4	3.1589093936579107
9.444444444444445E-4	3.095231512095912
9.5E-4	3.0317809212949602
9.555555555555556E-4	2.996565044989524
9.611111111111112E-4	3.157013750765421
9.666666666666667E-4	3.3166166747128853
9.722222222222223E-4	3.4753677920374195
9.77777777777778E-4	3.6332610982101037
9.833333333333335E-4	3.790290609090369
9.88888888888889E-4	3.9464503610483708
9.944444444444445E-4	3.9090354790225157
0.001	3.8442526269348387
0.0010055555555555555	3.7797014891237173
0.001011111111111111	3.6334271845743666
0.0010166666666666668	3.4605631419294145
0.0010222222222222223	3.2885045980370236
0.0010277777777777778	3.2527905687407115
0.0010333333333333334	3.2982848729880305
0.0010388888888888889	3.343452465193785
0.0010444444444444444	3.388291479097015
0.0010500000000000002	3.43280005594762
0.0010555555555555557	3.476976344544986
0.0010611111111111112	3.4407998989747637
0.0010666666666666667	3.27173087230731
0.0010722222222222222	3.1035050786383183
0.0010777777777777778	2.962580059295374
0.0010833333333333333	2.9014929467988475
0.001088888888888889	2.840668719582415
0.0010944444444444445	2.806336849734841
0.0011	2.955185793723367
0.0011055555555555556	3.1030924914920717
0.0011111111111111111	3.2500513225182113
0.0011166666666666666	3.3960566889172386
0.0011222222222222224	3.5411030155574355
0.001127777777777778	3.6851847501740367
0.0011333333333333334	3.6484435141919223
0.001138888888888889	3.58619696065327
0.0011444444444444445	3.52421762110807
0.00115	3.386128655480614
0.0011555555555555555	3.2234008221711665
0.0011611111111111112	3.061577629684616
0.0011666666666666668	3.0267806140728513
0.0011722222222222223	3.0675364960972766
0.0011777777777777778	3.1079366683698266
0.0011833333333333333	3.147979415096047
0.0011888888888888889	3.1876630287302907
0.0011944444444444446	3.226985810011383
0.0012000000000000001	3.1917200209981886
0.0012055555555555556	3.033273737111103
0.0012111111111111112	2.8757673395582097
0.0012166666666666667	2.743703701826849
0.0012222222222222222	2.6856722682073007
0.001227777777777778	2.6279373136711794
0.0012333333333333335	2.5947507365411573
0.001238888888888889	2.730867088401102
0.0012444444444444445	2.865951900712531
0.00125	3.0000000000000004
0.0012555555555555555	3.133006237626627
0.001261111111111111	3.2649654898996414
0.0012666666666666668	3.395872658175486
0.0012722222222222223	3.3600846912279017
0.0012777777777777779	3.3008481700962014
0.0012833333333333334	3.24191232901501
0.001288888888888889	3.1130596427182704
0.0012944444444444444	2.9617064758135614
0.0013000000000000002	2.811350206939196
0.0013055555555555557	2.777735031311793
0.0013111111111111112	2.813442314242043
0.0013166666666666667	2.8487675968761046
0.0013222222222222222	2.8837093269442575
0.0013277777777777778	2.9182659611007624
0.0013333333333333335	2.952435964956287
0.001338888888888889	2.918349226448576
0.0013444444444444445	2.771731557234712
0.00135	2.626143274588272
0.0013555555555555556	2.5039461024938308
0.0013611111111111111	2.4494120020014445
0.0013666666666666666	2.395205718010975
0.0013722222222222224	2.3634170034890634
0.001377777777777778	2.4857648355934825
0.0013833333333333334	2.606999685459494
0.001388888888888889	2.727116866032262
0.0013944444444444445	2.846111717106793
0.0014	2.9639796054236527
0.0014055555555555557	3.080715924764247
0.0014111111111111112	3.0461535948890286
0.0014166666666666668	2.990377931858082
0.0014222222222222223	2.9349341265779607
0.0014277777777777778	2.81629836635803
0.0014333333333333333	2.67747175484775
0.0014388888888888889	2.5397267115793065
0.0014444444444444446	2.507549207720183
0.0014500000000000001	2.5379361375725105
0.0014555555555555556	2.567917683837251
0.0014611111111111112	2.597492469583124
0.0014666666666666667	2.6266591274100928
0.0014722222222222222	2.655416299478295
0.001477777777777778	2.622768032138249
0.0014833333333333335	2.4890948265904975
0.001488888888888889	2.3565326735900536
0.0014944444444444445	2.24513196139684
0.0015	2.194510231464953
0.0015055555555555556	2.1442451605719492
0.001511111111111111	2.114096239970209
0.0015166666666666668	2.221744411441145
0.0015222222222222223	2.328206628450661
0.0015277777777777779	2.4334787260358333
0.0015333333333333334	2.5375565678905296
0.001538888888888889	2.6404360464505725
0.0015444444444444444	2.742113082978412
0.0015500000000000002	2.7090394303752197
0.0015555555555555557	2.6571491119189594
0.0015611111111111112	2.6056193032759754
0.0015666666666666667	2.4981033589023625
0.0015722222222222223	2.3728598571258996
0.0015777777777777778	2.2487743624153764
0.0015833333333333335	2.2182794205582153
0.001588888888888889	2.2431147344483118
0.0015944444444444446	2.267524366673304
0.0016	2.2915071261196287
0.0016055555555555556	2.3150618317396874
0.0016111111111111111	2.3381873125770745
0.0016166666666666666	2.3072259894327125
0.0016222222222222224	2.187514581359382
0.001627777777777778	2.068987436032483
0.0016333333333333334	1.9692310104258768
0.001638888888888889	1.922906912985507
0.0016444444444444445	1.876965602730344
0.00165	1.8486859275389793
0.0016555555555555557	1.940815170791786
0.0016611111111111113	2.0316945131897204
0.0016666666666666668	2.1213203435596424
0.0016722222222222223	2.209689080974071
0.0016777777777777778	2.2967971748251266
0.0016833333333333333	2.3826411048979694
0.001688888888888889	2.3513078400335257
0.0016944444444444446	2.3036977828076335
0.0017000000000000001	2.2564741437601077
0.0017055555555555556	2.160896276489399
0.0017111111111111112	2.0501890631193653
0.0017166666666666667	1.9407074825063797
0.0017222222222222222	1.9121271875720611
0.001727777777777778	1.9312218737652547
0.0017333333333333335	1.949873819910326
0.001738888888888889	1.968082029776528
0.0017444444444444445	1.9858455176571903
0.00175	2.0031633083910436
0.0017555555555555556	1.9741245638064515
0.0017611111111111113	1.8692860293067035
0.0017666666666666668	1.7656959547979343
0.0017722222222222223	1.6783430224113771
0.0017777777777777779	1.6366691118153025
0.0017833333333333334	1.5954012033091436
0.001788888888888889	1.569205998932091
0.0017944444444444444	1.645115154796457
0.0018000000000000002	1.7197199759127169
0.0018055555555555557	1.7930174323807226
0.0018111111111111112	1.865004525904653
0.0018166666666666667	1.9356782898552112
0.0018222222222222223	2.005035789331222
0.0018277777777777778	1.975681377270686
0.0018333333333333335	1.9327139225583885
0.001838888888888889	1.8901558535138865
0.0018444444444444446	1.807243468627506
0.00185	1.711915092404491
0.0018555555555555556	1.6178706468242887
0.0018611111111111111	1.5914225121145213
0.0018666666666666666	1.6046312485191927
0.0018722222222222224	1.6173835560118286
0.001877777777777778	1.6296786408264083
0.0018833333333333334	1.6415157200990136
0.001888888888888889	1.6528940218850792
0.0018944444444444445	1.6259988582406197
0.0019	1.5368310818652404
0.0019055555555555557	1.4489664611910065
0.0019111111111111113	1.3746818305851032
0.0019166666666666668	1.337975270456353
0.0019222222222222223	1.3016948374011748
0.0019277777777777778	1.2777834651608406
0.0019333333333333333	1.3368948191254415
0.001938888888888889	1.3946573312237065
0.0019444444444444446	1.451068575887854
0.0019500000000000001	1.5061261602725784
0.001955555555555556	1.5598277243049918
0.0019611111111111114	1.6121709407339517
0.001966666666666667	1.585018786277782
0.0019722222222222224	1.5470209423538999
0.001977777777777778	1.509452335915114
0.0019833333333333335	1.439836446725915
0.001988888888888889	1.3606124141538232
0.0019944444444444445	1.2827208386228641
0.002	1.2586061504126052
0.0020055555555555556	1.2658284105690627
0.002011111111111111	1.2725840266491881
0.0020166666666666666	1.2788724133927314
0.002022222222222222	1.2846929967365917
0.002027777777777778	1.2900452138278726
0.0020333333333333336	1.2654983195586205
0.002038888888888889	1.1926799219267967
0.0020444444444444447	1.121209457904544
0.00205	1.0605584799724934
0.0020555555555555557	1.029098629397675
0.002061111111111111	0.9980817877957509
0.0020666666666666667	0.9766362276729659
0.0020722222222222223	1.0184999066417195
0.0020777777777777778	1.058980502126963
0.0020833333333333333	1.098076211353316
0.002088888888888889	1.1357852651369873
0.0020944444444444443	1.1721059279230759
0.0021000000000000003	1.207036497822263
0.002105555555555556	1.1822932452607946
0.0021111111111111113	1.1495541986613147
0.002116666666666667	1.1172609746077897
0.0021222222222222224	1.0614714000677241
0.002127777777777778	0.9989546538712073
0.0021333333333333334	0.9378087503114998
0.002138888888888889	0.9162110359388764
0.0021444444444444445	0.9173918540864098
0.00215	0.9180993644365028
0.0021555555555555555	0.9183331946888599
0.002161111111111111	0.9180929839501656
0.0021666666666666666	0.9173783827428389
0.0021722222222222225	0.895366574536007
0.002177777777777778	0.8394517476226674
0.0021833333333333336	0.7849193736386464
0.002188888888888889	0.7383636389445744
0.0021944444444444446	0.7123899263825378
0.0022	0.6868727331269409
0.0022055555555555557	0.6680561987834216
0.002211111111111111	0.6923535948813953
0.0022166666666666667	0.715244191979122
0.0022222222222222222	0.7367268238138375
0.0022277777777777777	0.7568003583278137
0.0022333333333333333	0.7754636976927574
0.002238888888888889	0.7927157783335829
0.0022444444444444447	0.7705697387591933
0.0022500000000000003	0.7433386533971122
0.002255555555555556	0.7165665826630779
0.0022611111111111113	0.6750279151210614
0.002266666666666667	0.6296942454873191
0.0022722222222222224	0.5857593711458605
0.002277777777777778	0.5668430022583051
0.0022833333333333334	0.5619733916578136
0.002288888888888889	0.5566274116969033
0.0022944444444444444	0.5508049058686634
0.0023	0.544505729196177
0.0023055555555555555	0.5377297482369183
0.002311111111111111	0.5184205492440563
0.002316666666666667	0.4798348386443041
0.0023222222222222225	0.4426555789920844
0.002327777777777778	0.4105494047881315
0.0023333333333333335	0.39025950587483127
0.002338888888888889	0.3704361622139401
0.0023444444444444446	0.35439185883777546
0.00235	0.3609380542094946
0.0023555555555555556	0.3660644416540702
0.002361111111111111	0.369770500297316
0.0023666666666666667	0.3720557438232139
0.002372222222222222	0.37291972048521527
0.0023777777777777777	0.37236201311691075
0.0023833333333333337	0.3529817312629047
0.002388888888888889	0.3314658521404078
0.0023944444444444447	0.3104186863495689
0.0024000000000000002	0.28344706014732945
0.0024055555555555557	0.25564148367549233
0.0024111111111111113	0.22925200947462163
0.002416666666666667	0.2131609510613836
0.0024222222222222223	0.2022779723898886
0.002427777777777778	0.190919188253469
0.0024333333333333334	0.17908465912971008
0.002438888888888889	0.16677445706145694
0.0024444444444444444	0.15398866565681715
0.00245	0.13752903054147034
0.002455555555555556	0.11656609681166322
0.0024611111111111114	0.09702290810664718
0.002466666666666667	0.07961064176474351
0.0024722222222222224	0.06515897488228566
0.002477777777777778	0.051180348431019526
0.0024833333333333335	0.03803038285871628
0.002488888888888889	0.02677555700470146
0.0024944444444444445	0.014098719892276729
0.0025	2.59786816870648E-16
0.0025055555555555556	-0.015520439545279834
0.002511111111111111	-0.032462400970302105
0.0025166666666666666	-0.0508256518579109
0.002522222222222222	-0.06729268034448911
0.002527777777777778	-0.08292960439563776
0.0025333333333333336	-0.09809168360298906
0.002538888888888889	-0.11029099810413907
0.0025444444444444447	-0.12035686418765408
0.00255	-0.12900009841486754
0.0025555555555555557	-0.1421433836832163
0.0025611111111111112	-0.1589569043867017
0.0025666666666666667	-0.176242045492731
0.0025722222222222223	-0.19399852999949307
0.002577777777777778	-0.21222606939267025
0.0025833333333333333	-0.23092436364983257
0.002588888888888889	-0.24440916712583632
0.0025944444444444444	-0.24758978340224913
0.0026000000000000003	-0.24934816569351614
0.002605555555555556	-0.25193400631269475
0.0026111111111111114	-0.26043745525317974
0.002616666666666667	-0.2684649787069996
0.0026222222222222224	-0.27862052729726994
0.002627777777777778	-0.30759071835642
0.0026333333333333334	-0.33797430164093595
0.002638888888888889	-0.36977050029731645
0.0026444444444444445	-0.4029785029973374
0.00265	-0.4375974639531044
0.0026555555555555555	-0.47362650293272723
0.002661111111111111	-0.48705495402203264
0.002666666666666667	-0.4966939165679694
0.0026722222222222225	-0.5058555166139503
0.002677777777777778	-0.5031896752645086
0.0026833333333333336	-0.49543922364087
0.002688888888888889	-0.48627043766302847
0.0026944444444444446	-0.4963659214494643
0.0027	-0.5189820231401071
0.0027055555555555557	-0.5420619708548756
0.002711111111111111	-0.565605273175886
0.0027166666666666667	-0.5896114273131158
0.0027222222222222222	-0.614079919113163
0.0027277777777777778	-0.6244872634530245
0.0027333333333333333	-0.6098613558656722
0.0027388888888888892	-0.593821549392212
0.0027444444444444448	-0.5815612844801805
0.0027500000000000003	-0.5840517990977326
0.002755555555555556	-0.5860671252534719
0.0027611111111111113	-0.5931509670048505
0.002766666666666667	-0.6396160426224963
0.0027722222222222224	-0.687475134664199
0.002777777777777778	-0.7367268238138379
0.0027833333333333334	-0.7873696567165114
0.002788888888888889	-0.8394021460066494
0.0027944444444444444	-0.8928227703367229
0.0028	-0.9031104454076455
0.0028055555555555555	-0.9066780881232308
0.0028111111111111114	-0.9097694836995662
0.002816666666666667	-0.8922587751618832
0.0028222222222222225	-0.8667509914477973
