t    f(t)
begin
0.0	-2.1213203435596446
5.555555555555556E-6	-2.2096890809740715
1.1111111111111112E-5	-2.2967971748251306
1.6666666666666667E-5	-2.3826411048979725
2.2222222222222223E-5	-2.351307840033529
2.777777777777778E-5	-2.303697782807637
3.3333333333333335E-5	-2.256474143760112
3.888888888888889E-5	-2.160896276489403
4.4444444444444447E-5	-2.0501890631193684
5.0E-5	-1.9407074825063804
5.555555555555556E-5	-1.9121271875720638
6.111111111111112E-5	-1.9312218737652547
6.666666666666667E-5	-1.949873819910328
7.222222222222222E-5	-1.96808202977653
7.777777777777778E-5	-1.985845517657193
8.333333333333334E-5	-2.003163308391044
8.888888888888889E-5	-1.974124563806454
9.444444444444444E-5	-1.8692860293067097
1.0E-4	-1.765695954797939
1.0555555555555557E-4	-1.6783430224113784
1.1111111111111112E-4	-1.6366691118153043
1.1666666666666667E-4	-1.5954012033091451
1.2222222222222224E-4	-1.5692059989320921
1.277777777777778E-4	-1.6451151547964578
1.3333333333333334E-4	-1.7197199759127173
1.388888888888889E-4	-1.7930174323807213
1.4444444444444444E-4	-1.8650045259046544
1.5000000000000001E-4	-1.9356782898552116
1.5555555555555556E-4	-2.005035789331221
1.611111111111111E-4	-1.9756813772706892
1.666666666666667E-4	-1.9327139225583925
1.7222222222222224E-4	-1.890155853513887
1.7777777777777779E-4	-1.80724346862751
1.8333333333333334E-4	-1.7119150924044944
1.8888888888888888E-4	-1.6178706468242945
1.9444444444444446E-4	-1.5914225121145218
2.0E-4	-1.6046312485191945
2.0555555555555556E-4	-1.6173835560118304
2.1111111111111113E-4	-1.6296786408264108
2.1666666666666668E-4	-1.6415157200990136
2.2222222222222223E-4	-1.6528940218850812
2.2777777777777778E-4	-1.625998858240623
2.3333333333333333E-4	-1.5368310818652429
2.388888888888889E-4	-1.4489664611910076
2.444444444444445E-4	-1.3746818305851056
2.5E-4	-1.3379752704563554
2.555555555555556E-4	-1.3016948374011774
2.611111111111111E-4	-1.2777834651608426
2.666666666666667E-4	-1.3368948191254433
2.7222222222222226E-4	-1.3946573312237076
2.777777777777778E-4	-1.4510685758878545
2.8333333333333335E-4	-1.506126160272577
2.888888888888889E-4	-1.5598277243049905
2.9444444444444445E-4	-1.6121709407339495
3.0000000000000003E-4	-1.5850187862777863
3.0555555555555555E-4	-1.5470209423539047
3.111111111111111E-4	-1.5094523359151164
3.166666666666667E-4	-1.4398364467259188
3.222222222222222E-4	-1.3606124141538272
3.277777777777778E-4	-1.2827208386228681
3.333333333333334E-4	-1.2586061504126056
3.388888888888889E-4	-1.2658284105690643
3.444444444444445E-4	-1.2725840266491906
3.5E-4	-1.278872413392735
3.5555555555555557E-4	-1.2846929967365928
3.6111111111111115E-4	-1.2900452138278746
3.6666666666666667E-4	-1.2654983195586273
3.7222222222222225E-4	-1.1926799219268025
3.7777777777777777E-4	-1.1212094579045468
3.8333333333333334E-4	-1.060558479972496
3.888888888888889E-4	-1.0290986293976772
3.9444444444444444E-4	-0.9980817877957545
4.0E-4	-0.9766362276729658
4.055555555555556E-4	-1.0184999066417213
4.111111111111111E-4	-1.0589805021269638
4.166666666666667E-4	-1.0980762113533193
4.2222222222222227E-4	-1.1357852651369897
4.277777777777778E-4	-1.1721059279230774
4.3333333333333337E-4	-1.207036497822263
4.388888888888889E-4	-1.1822932452608
4.4444444444444447E-4	-1.1495541986613156
4.5000000000000004E-4	-1.117260974607792
4.5555555555555556E-4	-1.0614714000677274
4.6111111111111114E-4	-0.9989546538712106
4.6666666666666666E-4	-0.9378087503115018
4.7222222222222224E-4	-0.9162110359388776
4.777777777777778E-4	-0.9173918540864121
4.8333333333333334E-4	-0.9180993644365059
4.88888888888889E-4	-0.9183331946888608
4.944444444444445E-4	-0.9180929839501666
5.0E-4	-0.9173783827428407
5.055555555555555E-4	-0.8953665745360133
5.111111111111112E-4	-0.8394517476226692
5.166666666666667E-4	-0.7849193736386499
5.222222222222222E-4	-0.738363638944577
5.277777777777778E-4	-0.712389926382541
5.333333333333334E-4	-0.6868727331269449
5.388888888888889E-4	-0.6680561987834219
5.444444444444445E-4	-0.6923535948813978
5.5E-4	-0.7152441919791249
5.555555555555556E-4	-0.7367268238138407
5.611111111111112E-4	-0.7568003583278159
5.666666666666667E-4	-0.7754636976927604
5.722222222222222E-4	-0.7927157783335848
5.777777777777778E-4	-0.7705697387591992
5.833333333333334E-4	-0.7433386533971145
5.888888888888889E-4	-0.7165665826630809
5.944444444444444E-4	-0.6750279151210655
6.000000000000001E-4	-0.6296942454873234
6.055555555555556E-4	-0.5857593711458611
6.111111111111111E-4	-0.566843002258306
6.166666666666667E-4	-0.5619733916578158
6.222222222222223E-4	-0.5566274116969067
6.277777777777778E-4	-0.5508049058686639
6.333333333333334E-4	-0.5445057291961787
6.388888888888889E-4	-0.5377297482369213
6.444444444444444E-4	-0.5184205492440603
6.500000000000001E-4	-0.4798348386443071
6.555555555555556E-4	-0.44265557899208763
6.611111111111111E-4	-0.41054940478813484
6.666666666666668E-4	-0.390259505874835
6.722222222222223E-4	-0.3704361622139403
6.777777777777778E-4	-0.35439185883777535
6.833333333333333E-4	-0.36093805420949593
6.88888888888889E-4	-0.36606444165407337
6.944444444444445E-4	-0.3697705002973165
7.0E-4	-0.3720557438232159
7.055555555555556E-4	-0.3729197204852185
7.111111111111111E-4	-0.37236201311691414
7.166666666666667E-4	-0.3529817312629069
7.222222222222223E-4	-0.3314658521404108
7.277777777777778E-4	-0.3104186863495717
7.333333333333333E-4	-0.28344706014733323
7.38888888888889E-4	-0.2556414836754929
7.444444444444445E-4	-0.22925200947462276
7.5E-4	-0.21316095106138572
7.555555555555555E-4	-0.20227797238989173
7.611111111111112E-4	-0.19091918825346954
7.666666666666667E-4	-0.17908465912971164
7.722222222222222E-4	-0.16677445706145944
7.777777777777778E-4	-0.15398866565681962
7.833333333333334E-4	-0.1375290305414699
7.888888888888889E-4	-0.11656609681166516
7.944444444444445E-4	-0.09702290810664965
8.0E-4	-0.07961064176474655
8.055555555555556E-4	-0.06515897488228944
8.111111111111112E-4	-0.05118034843102077
8.166666666666667E-4	-0.038030382858718195
8.222222222222222E-4	-0.026775557004704423
8.277777777777779E-4	-0.014098719892277222
8.333333333333334E-4	-7.79360450611944E-16
8.388888888888889E-4	0.01552043954527832
8.444444444444445E-4	0.03246240097029956
8.500000000000001E-4	0.050825651857907016
8.555555555555556E-4	0.06729268034448851
8.611111111111111E-4	0.08292960439563513
8.666666666666667E-4	0.09809168360298542
8.722222222222223E-4	0.1102909981041346
8.777777777777778E-4	0.1203568641876526
8.833333333333334E-4	0.12900009841486562
8.888888888888889E-4	0.14214338368321297
8.944444444444445E-4	0.15895690438669835
9.000000000000001E-4	0.17624204549273054
9.055555555555556E-4	0.19399852999949166
9.111111111111111E-4	0.21222606939266792
9.166666666666668E-4	0.23092436364982905
9.222222222222223E-4	0.24440916712583582
9.277777777777778E-4	0.2475897834022474
9.333333333333333E-4	0.24934816569351392
9.38888888888889E-4	0.2519340063126911
9.444444444444445E-4	0.2604374552531786
9.5E-4	0.26846497870699826
9.555555555555556E-4	0.27862052729726716
9.611111111111112E-4	0.30759071835641627
9.666666666666667E-4	0.33797430164093506
9.722222222222223E-4	0.36977050029731534
9.77777777777778E-4	0.40297850299733573
9.833333333333335E-4	0.43759746395310045
9.88888888888889E-4	0.47362650293272657
9.944444444444445E-4	0.48705495402203103
0.001	0.496693916567966
0.0010055555555555555	0.5058555166139458
0.001011111111111111	0.5031896752645091
0.0010166666666666668	0.495439223640868
0.0010222222222222223	0.48627043766302785
0.0010277777777777778	0.4963659214494608
0.0010333333333333334	0.5189820231401027
0.0010388888888888889	0.5420619708548743
0.0010444444444444444	0.5656052731758834
0.0010500000000000002	0.589611427313113
0.0010555555555555557	0.6140799191131634
0.0010611111111111112	0.6244872634530239
0.0010666666666666667	0.60986135586567
0.0010722222222222222	0.593821549392211
0.0010777777777777778	0.5815612844801772
0.0010833333333333333	0.5840517990977315
0.001088888888888889	0.5860671252534706
0.0010944444444444445	0.5931509670048462
0.0011	0.6396160426224949
0.0011055555555555556	0.6874751346641969
0.0011111111111111111	0.7367268238138356
0.0011166666666666666	0.7873696567165089
0.0011222222222222224	0.839402146006646
0.001127777777777778	0.8928227703367223
0.0011333333333333334	0.9031104454076438
0.001138888888888889	0.9066780881232279
0.0011444444444444445	0.9097694836995621
0.00115	0.8922587751618833
0.0011555555555555555	0.866750991447795
0.0011611111111111112	0.8398399652624555
0.0011666666666666668	0.8468108148395402
0.0011722222222222223	0.8750573753275014
0.0011777777777777778	0.9037564773128455
0.0011833333333333333	0.9329074187016053
0.0011888888888888889	0.9625094862545911
0.0011944444444444446	0.9925619556004498
0.0012000000000000001	0.9998126346296152
0.0012055555555555556	0.9674915151666013
0.0012111111111111112	0.9337755925407774
0.0012166666666666667	0.9067625301164678
0.0012222222222222222	0.9032211560910322
0.001227777777777778	0.8992089470997583
0.0012333333333333335	0.9031671696991722
0.001238888888888889	0.9667735025934858
0.0012444444444444445	1.0317438668038295
0.00125	1.098076211353314
0.0012555555555555555	1.165768451921273
0.001261111111111111	1.2348184708842047
0.0012666666666666668	1.3052241173573274
0.0012722222222222223	1.3122927209907085
0.0012777777777777779	1.309761891960674
0.0012833333333333334	1.306759555680395
0.001288888888888889	1.274537247019697
0.0012944444444444444	1.2314662608512459
0.0013000000000000002	1.1870178036170005
0.0013055555555555557	1.1908109666103444
0.0013111111111111112	1.2244730125145644
0.0013166666666666667	1.258572851275385
0.0013222222222222222	1.2931095754661075
0.0013277777777777778	1.3280822668265582
0.0013333333333333335	1.3634899962803215
0.001338888888888889	1.3675288279533004
0.0013444444444444445	1.3177584798497621
0.00135	1.2666230396009908
0.0013555555555555556	1.2250627653803834
0.0013611111111111111	1.2155164547066348
0.0013666666666666666	1.205507245901411
0.0013722222222222224	1.2063097248848431
0.001377777777777778	1.2865732324559427
0.0013833333333333334	1.3681604051331044
0.001388888888888889	1.4510685758878492
0.0013944444444444445	1.5352950452966825
0.0014	1.6208370815945619
0.0014055555555555557	1.7076919207289731
0.0014111111111111112	1.7114876565830237
0.0014166666666666668	1.7028776169444506
0.0014222222222222223	1.6938043983995033
0.0014277777777777778	1.6471157208410567
0.0014333333333333333	1.5868093284299605
0.0014388888888888889	1.5251617197450773
0.0014444444444444446	1.5257483278939197
0.0014500000000000001	1.5645696707193721
0.0014555555555555556	1.6038107258926537
0.0014611111111111112	1.6434703875604029
0.0014666666666666667	1.683547539429973
0.0014722222222222222	1.7240410547907299
0.001477777777777778	1.7248373011597784
0.0014833333333333335	1.6579965068169433
0.001488888888888889	1.589830720521942
0.0014944444444444445	1.5340395332866321
0.0015	1.518560939153018
0.0015055555555555556	1.5026309066565762
0.001511111111111111	1.5002715346744069
0.0015166666666666668	1.5965813631652497
0.0015222222222222223	1.6941644166614769
0.0015277777777777779	1.7930174323807166
0.0015333333333333334	1.8931371163408874
0.001538888888888889	1.9945201434257924
0.0015444444444444444	2.097163157451293
0.0015500000000000002	2.0976571376842394
0.0015555555555555557	2.0830334150376575
0.0015611111111111112	2.067958366899733
0.0015666666666666667	2.0071586494711546
0.0015722222222222223	1.930075818877654
0.0015777777777777778	1.8516982342680661
0.0015833333333333335	1.849073823130195
0.001588888888888889	1.8927590090170088
0.0015944444444444446	1.9368426324784855
0.0016	1.9813233976508164
0.0016055555555555556	2.0261999987045285
0.0016111111111111111	2.0714711198697304
0.0016166666666666666	2.069018721019193
0.0016222222222222224	1.985616179241585
0.001627777777777778	1.9009388296936824
0.0016333333333333334	1.831341334066174
0.001638888888888889	1.8100482579202817
0.0016444444444444445	1.7883186388987395
0.00165	1.7828153721963853
0.0016555555555555557	1.8944385456586845
0.0016611111111111113	2.007274814014612
0.0016666666666666668	2.12132034355964
0.0016722222222222223	2.236571270822297
0.0016777777777777778	2.3530237026413627
0.0016833333333333333	2.4706737162436765
0.001688888888888889	2.467862181367673
0.0016944444444444446	2.447336071072464
0.0017000000000000001	2.426373923560454
0.0017055555555555556	2.3519258888232475
0.0017111111111111112	2.258653266932046
0.0017166666666666667	2.1641422071423113
0.0017222222222222222	2.1583267500711454
0.001727777777777778	2.2065433083768884
0.0017333333333333335	2.2551339971336026
0.001738888888888889	2.3040973403293257
0.0017444444444444445	2.353431852535932
0.00175	2.4031360389380625
0.0017555555555555556	2.3974536591039897
0.0017611111111111113	2.2981241135943717
0.0017666666666666668	2.1975796465532063
0.0017722222222222223	2.1147055214993395
0.0017777777777777779	2.0877600165077514
0.0017833333333333334	2.0603961864825635
0.001788888888888889	2.0517909082425914
0.0017944444444444444	2.177877906926382
0.0018000000000000002	2.3051086380074253
0.0018055555555555557	2.4334787260358355
0.0018111111111111112	2.5629837674540887
0.0018166666666666667	2.693619330685275
0.0018222222222222223	2.825380956221872
0.0018277777777777778	2.8192853037149694
0.0018333333333333335	2.7930130218644855
0.001838888888888889	2.7663233095782473
0.0018444444444444446	2.6787935520297164
0.00185	2.5700409998129543
0.0018555555555555556	2.4601157510754095
0.0018611111111111111	2.451153507210733
0.0018666666666666666	2.5035344808127418
0.0018722222222222224	2.5562624303833923
0.001877777777777778	2.6093357109959165
0.0018833333333333334	2.6627526689285324
0.001888888888888889	2.7165116416968624
0.0018944444444444445	2.7076425272209077
0.0019	2.5931419357974295
0.0019055555555555557	2.4774955553675895
0.0019111111111111113	2.381975523019791
0.0019166666666666668	2.3495826607456363
0.0019222222222222223	2.3167928749860223
0.0019277777777777778	2.3051510765718484
0.0019333333333333333	2.4447423022837405
0.001938888888888889	2.5853991934023517
0.0019444444444444446	2.7271168660322673
0.0019500000000000001	2.869890410043644
0.001955555555555556	3.0137148891708567
0.0019611111111111114	3.158585341111559
0.001966666666666667	3.149251962569982
0.0019722222222222224	3.117433457092747
0.001977777777777778	3.0852193048584655
0.0019833333333333335	2.9852739788054685
0.001988888888888889	2.861869168852104
0.0019944444444444445	2.737366328684321
0.002	2.725325506113493
0.0020055555555555556	2.781472244174161
0.002011111111111111	2.837936163024508
0.0020166666666666666	2.8947154613418467
0.002022222222222222	2.951808329696565
0.002027777777777778	3.0092129505877745
0.0020333333333333336	2.9972246007864114
0.002038888888888889	2.8684243820871456
0.0020444444444444447	2.738556227052909
0.00205	2.6311172525339197
0.0020555555555555557	2.5935235622184436
0.002061111111111111	2.5555573707930495
0.0020666666666666667	2.5409676533201173
0.0020722222222222223	2.693000732544957
0.0020777777777777778	2.846013299828771
0.0020833333333333333	2.9999999999999996
0.002088888888888889	3.154955453725552
0.0020944444444444443	3.310874257619034
0.0021000000000000003	3.4677509843494043
0.002105555555555556	3.455250912419513
0.0021111111111111113	3.418128341354745
0.002116666666666667	3.380634918322362
0.0021222222222222224	3.2690346680447995
0.002127777777777778	3.131916785472437
0.0021333333333333334	2.993783895664964
0.002138888888888889	2.9787561323181975
0.0021444444444444445	3.038241324258558
0.00215	3.098011487872301
0.0021555555555555555	3.1580646791499833
0.002161111111111111	3.218398946725007
0.0021666666666666666	3.2790123319122526
0.0021722222222222225	3.2639959853662392
0.002177777777777778	3.1218763868271875
0.0021833333333333336	2.978774832264888
0.002188888888888889	2.8602345910442293
0.0021944444444444446	2.817726183370426
0.0022	2.774872531920614
0.0022055555555555557	2.757445931948403
0.002211111111111111	2.920763801153206
0.0022166666666666667	3.0849675265736805
0.0022222222222222222	3.2500513225182104
0.0022277777777777777	3.4160093813904266
0.0022333333333333333	3.5828358738061943
0.002238888888888889	3.7505249487110497
0.0022444444444444447	3.734953316487985
0.0022500000000000003	3.69280920501671
0.002255555555555556	3.6503218587746518
0.0022611111111111113	3.527916029563211
0.002266666666666667	3.378128624252264
0.0022722222222222224	3.2274169595034636
0.002277777777777778	3.209516625733834
0.0022833333333333334	3.271887553325076
0.002288888888888889	3.3345090746669044
0.0022944444444444444	3.3973791178581987
0.0023	3.4604956044464545
0.0023055555555555555	3.5238564494690983
0.002311111111111111	3.505926389642777
0.002316666666666667	3.3515690272229666
0.0023222222222222225	3.1963231623699198
0.002327777777777778	3.0675838172598264
0.0023333333333333335	3.0204842068773723
0.002338888888888889	2.9730692375664205
0.0023444444444444446	2.952938382043193
0.00235	3.126298093629284
0.0023555555555555556	3.30044328768704
0.002361111111111111	3.4753677920374146
0.0023666666666666667	3.6510654150200614
0.002372222222222222	3.827529945618248
0.0023777777777777777	4.00475515358413
0.0023833333333333337	3.9862304705915146
0.002388888888888889	3.939385560849337
0.0023944444444444447	3.892227645757065
0.0024000000000000002	3.7599478198827025
0.0024055555555555557	3.5986308644316987
0.0024111111111111113	3.4364874315124943
0.002416666666666667	3.4158507596685106
0.0024222222222222223	3.4806327424910686
0.002427777777777778	3.5456290339716636
0.0024333333333333334	3.610837450085915
0.002438888888888889	3.6762558011136908
0.0024444444444444444	3.7418818916827927
0.00245	3.7211745771578917
0.002455555555555556	3.5557542035888763
0.0024611111111111114	3.38954554321662
0.002466666666666667	3.2515868783683253
0.0024722222222222224	3.2002545217517517
0.002477777777777778	3.1486390911260558
0.0024833333333333335	3.1259571880176824
0.002488888888888889	3.3080393699024375
0.0024944444444444445	3.490800682518957
0.0025	3.6742346141747664
0.0025055555555555556	3.858334636267821
0.002511111111111111	4.0430942034183746
0.0025166666666666666	4.228506753601159
0.002522222222222222	4.207170003862081
0.002527777777777778	4.155980813897863
0.0025333333333333336	4.10451123016396
0.002538888888888889	3.9633641369743207
0.0025444444444444447	3.7917453508200833
0.00255	3.619404159159856
0.0025555555555555557	3.596188206775028
0.0025611111111111112	3.6628882148231936
0.0025666666666666667	3.7297646154185538
0.0025722222222222223	3.796815129035214
0.002577777777777778	3.8640374713505077
0.0025833333333333333	3.931429353290717
0.002588888888888889	3.9081023792341933
0.0025944444444444444	3.7328779434424013
0.0026000000000000003	3.5569714358158864
0.002605555555555556	3.4108433999706036
0.0026111111111111114	3.3556689673490885
0.002616666666666667	3.300245900001958
0.0026222222222222224	3.2751855722867997
0.002627777777777778	3.464604469121848
0.0026333333333333334	3.6545909763538234
0.002638888888888889	3.8451382923347306
0.0026444444444444445	4.036239601207433
0.00265	4.227888073043475
0.0026555555555555555	4.420076863981097
0.002661111111111111	4.396090433044547
0.002666666666666667	4.340946543502803
0.0026722222222222225	4.2855570057376635
0.002677777777777778	4.136616859838867
0.0026833333333333336	3.9560023655702867
0.002688888888888889	3.774775035700041
0.0026944444444444446	3.749156490190178
0.0027	3.817266896128139
0.0027055555555555557	3.8855144360486595
0.002711111111111111	3.953896752272899
0.0027166666666666667	4.022411483260733
0.0027222222222222222	4.09105626365815
0.0027277777777777778	4.065287162427787
0.0027333333333333333	3.8815922281729858
0.0027388888888888892	3.6973266280305186
0.0027444444444444448	3.544141343775551
0.0027500000000000003	3.485544745896577
0.002755555555555556	3.4267358448358824
0.0027611111111111113	3.3994878167396987
0.002766666666666667	3.5948018363458663
0.0027722222222222224	3.7905676261562724
0.002777777777777778	3.986778146332049
0.0027833333333333334	4.18342634563375
0.002788888888888889	4.380505161564086
0.0027944444444444444	4.578007520510758
